Angle(deg),BER_Bound_Exact_Integral
0.00,1.75255593e-03
0.01,1.75249535e-03
0.02,1.75231538e-03
0.03,1.75201881e-03
0.04,1.75160814e-03
0.05,1.75108583e-03
0.06,1.75045433e-03
0.07,1.74971607e-03
0.08,1.74887346e-03
0.09,1.74792893e-03
0.10,1.74688487e-03
0.11,1.74574365e-03
0.12,1.74450765e-03
0.13,1.74317920e-03
0.14,1.74176061e-03
0.15,1.74025420e-03
0.16,1.73866222e-03
0.17,1.73698694e-03
0.18,1.73523057e-03
0.19,1.73339530e-03
0.20,1.73148330e-03
0.21,1.72949670e-03
0.22,1.72743760e-03
0.23,1.72530807e-03
0.24,1.72311014e-03
0.25,1.72084581e-03
0.26,1.71851706e-03
0.27,1.71612581e-03
0.28,1.71367395e-03
0.29,1.71116334e-03
0.30,1.70859581e-03
0.31,1.70597314e-03
0.32,1.70329708e-03
0.33,1.70056935e-03
0.34,1.69779161e-03
0.35,1.69496551e-03
0.36,1.69209265e-03
0.37,1.68917460e-03
0.38,1.68621288e-03
0.39,1.68320900e-03
0.40,1.68016441e-03
0.41,1.67708054e-03
0.42,1.67395877e-03
0.43,1.67080047e-03
0.44,1.66760695e-03
0.45,1.66437950e-03
0.46,1.66111938e-03
0.47,1.65782781e-03
0.48,1.65450599e-03
0.49,1.65115507e-03
0.50,1.64777619e-03
0.51,1.64437044e-03
0.52,1.64093890e-03
0.53,1.63748261e-03
0.54,1.63400258e-03
0.55,1.63049979e-03
0.56,1.62697522e-03
0.57,1.62342978e-03
0.58,1.61986438e-03
0.59,1.61627992e-03
0.60,1.61267724e-03
0.61,1.60905717e-03
0.62,1.60542053e-03
0.63,1.60176811e-03
0.64,1.59810066e-03
0.65,1.59441893e-03
0.66,1.59072365e-03
0.67,1.58701550e-03
0.68,1.58329518e-03
0.69,1.57956333e-03
0.70,1.57582062e-03
0.71,1.57206765e-03
0.72,1.56830504e-03
0.73,1.56453336e-03
0.74,1.56075321e-03
0.75,1.55696511e-03
0.76,1.55316963e-03
0.77,1.54936727e-03
0.78,1.54555854e-03
0.79,1.54174394e-03
0.80,1.53792395e-03
0.81,1.53409903e-03
0.82,1.53026962e-03
0.83,1.52643617e-03
0.84,1.52259911e-03
0.85,1.51875884e-03
0.86,1.51491576e-03
0.87,1.51107026e-03
0.88,1.50722272e-03
0.89,1.50337350e-03
0.90,1.49952296e-03
0.91,1.49567145e-03
0.92,1.49181929e-03
0.93,1.48796681e-03
0.94,1.48411433e-03
0.95,1.48026215e-03
0.96,1.47641056e-03
0.97,1.47255986e-03
0.98,1.46871033e-03
0.99,1.46486223e-03
1.00,1.46101583e-03
1.01,1.45717138e-03
1.02,1.45332912e-03
1.03,1.44948931e-03
1.04,1.44565217e-03
1.05,1.44181793e-03
1.06,1.43798680e-03
1.07,1.43415900e-03
1.08,1.43033474e-03
1.09,1.42651421e-03
1.10,1.42269761e-03
1.11,1.41888512e-03
1.12,1.41507693e-03
1.13,1.41127322e-03
1.14,1.40747415e-03
1.15,1.40367989e-03
1.16,1.39989061e-03
1.17,1.39610645e-03
1.18,1.39232757e-03
1.19,1.38855412e-03
1.20,1.38478623e-03
1.21,1.38102405e-03
1.22,1.37726771e-03
1.23,1.37351733e-03
1.24,1.36977305e-03
1.25,1.36603498e-03
1.26,1.36230323e-03
1.27,1.35857794e-03
1.28,1.35485919e-03
1.29,1.35114710e-03
1.30,1.34744177e-03
1.31,1.34374331e-03
1.32,1.34005180e-03
1.33,1.33636734e-03
1.34,1.33269002e-03
1.35,1.32901993e-03
1.36,1.32535714e-03
1.37,1.32170175e-03
1.38,1.31805383e-03
1.39,1.31441345e-03
1.40,1.31078069e-03
1.41,1.30715562e-03
1.42,1.30353830e-03
1.43,1.29992881e-03
1.44,1.29632720e-03
1.45,1.29273354e-03
1.46,1.28914789e-03
1.47,1.28557029e-03
1.48,1.28200081e-03
1.49,1.27843950e-03
1.50,1.27488640e-03
1.51,1.27134157e-03
1.52,1.26780506e-03
1.53,1.26427690e-03
1.54,1.26075714e-03
1.55,1.25724582e-03
1.56,1.25374299e-03
1.57,1.25024867e-03
1.58,1.24676290e-03
1.59,1.24328573e-03
1.60,1.23981717e-03
1.61,1.23635727e-03
1.62,1.23290605e-03
1.63,1.22946354e-03
1.64,1.22602977e-03
1.65,1.22260477e-03
1.66,1.21918855e-03
1.67,1.21578115e-03
1.68,1.21238258e-03
1.69,1.20899287e-03
1.70,1.20561203e-03
1.71,1.20224008e-03
1.72,1.19887704e-03
1.73,1.19552293e-03
1.74,1.19217776e-03
1.75,1.18884155e-03
1.76,1.18551431e-03
1.77,1.18219604e-03
1.78,1.17888677e-03
1.79,1.17558650e-03
1.80,1.17229525e-03
1.81,1.16901301e-03
1.82,1.16573981e-03
1.83,1.16247563e-03
1.84,1.15922050e-03
1.85,1.15597442e-03
1.86,1.15273738e-03
1.87,1.14950940e-03
1.88,1.14629048e-03
1.89,1.14308061e-03
1.90,1.13987981e-03
1.91,1.13668807e-03
1.92,1.13350539e-03
1.93,1.13033177e-03
1.94,1.12716721e-03
1.95,1.12401171e-03
1.96,1.12086526e-03
1.97,1.11772787e-03
1.98,1.11459953e-03
1.99,1.11148024e-03
2.00,1.10836999e-03
2.01,1.10526877e-03
2.02,1.10217659e-03
2.03,1.09909343e-03
2.04,1.09601929e-03
2.05,1.09295416e-03
2.06,1.08989804e-03
2.07,1.08685091e-03
2.08,1.08381277e-03
2.09,1.08078361e-03
2.10,1.07776342e-03
2.11,1.07475220e-03
2.12,1.07174992e-03
2.13,1.06875659e-03
2.14,1.06577218e-03
2.15,1.06279670e-03
2.16,1.05983013e-03
2.17,1.05687245e-03
2.18,1.05392366e-03
2.19,1.05098374e-03
2.20,1.04805268e-03
2.21,1.04513047e-03
2.22,1.04221709e-03
2.23,1.03931254e-03
2.24,1.03641679e-03
2.25,1.03352984e-03
2.26,1.03065166e-03
2.27,1.02778226e-03
2.28,1.02492160e-03
2.29,1.02206968e-03
2.30,1.01922648e-03
2.31,1.01639198e-03
2.32,1.01356618e-03
2.33,1.01074905e-03
2.34,1.00794057e-03
2.35,1.00514074e-03
2.36,1.00234954e-03
2.37,9.99566943e-04
2.38,9.96792941e-04
2.39,9.94027515e-04
2.40,9.91270648e-04
2.41,9.88522323e-04
2.42,9.85782523e-04
2.43,9.83051229e-04
2.44,9.80328425e-04
2.45,9.77614094e-04
2.46,9.74908216e-04
2.47,9.72210774e-04
2.48,9.69521749e-04
2.49,9.66841125e-04
2.50,9.64168881e-04
2.51,9.61505001e-04
2.52,9.58849464e-04
2.53,9.56202253e-04
2.54,9.53563349e-04
2.55,9.50932732e-04
2.56,9.48310384e-04
2.57,9.45696286e-04
2.58,9.43090419e-04
2.59,9.40492762e-04
2.60,9.37903298e-04
2.61,9.35322006e-04
2.62,9.32748867e-04
2.63,9.30183862e-04
2.64,9.27626970e-04
2.65,9.25078173e-04
2.66,9.22537450e-04
2.67,9.20004782e-04
2.68,9.17480148e-04
2.69,9.14963530e-04
2.70,9.12454905e-04
2.71,9.09954256e-04
2.72,9.07461562e-04
2.73,9.04976802e-04
2.74,9.02499956e-04
2.75,9.00031004e-04
2.76,8.97569927e-04
2.77,8.95116703e-04
2.78,8.92671312e-04
2.79,8.90233734e-04
2.80,8.87803949e-04
2.81,8.85381936e-04
2.82,8.82967674e-04
2.83,8.80561144e-04
2.84,8.78162325e-04
2.85,8.75771195e-04
2.86,8.73387736e-04
2.87,8.71011925e-04
2.88,8.68643743e-04
2.89,8.66283169e-04
2.90,8.63930183e-04
2.91,8.61584763e-04
2.92,8.59246889e-04
2.93,8.56916541e-04
2.94,8.54593698e-04
2.95,8.52278339e-04
2.96,8.49970443e-04
2.97,8.47669991e-04
2.98,8.45376961e-04
2.99,8.43091332e-04
3.00,8.40813084e-04
3.01,8.38542197e-04
3.02,8.36278649e-04
3.03,8.34022421e-04
3.04,8.31773490e-04
3.05,8.29531838e-04
3.06,8.27297442e-04
3.07,8.25070283e-04
3.08,8.22850340e-04
3.09,8.20637592e-04
3.10,8.18432019e-04
3.11,8.16233599e-04
3.12,8.14042313e-04
3.13,8.11858140e-04
3.14,8.09681060e-04
3.15,8.07511051e-04
3.16,8.05348093e-04
3.17,8.03192167e-04
3.18,8.01043250e-04
3.19,7.98901324e-04
3.20,7.96766366e-04
3.21,7.94638358e-04
3.22,7.92517278e-04
3.23,7.90403107e-04
3.24,7.88295823e-04
3.25,7.86195406e-04
3.26,7.84101837e-04
3.27,7.82015094e-04
3.28,7.79935158e-04
3.29,7.77862008e-04
3.30,7.75795624e-04
3.31,7.73735986e-04
3.32,7.71683073e-04
3.33,7.69636866e-04
3.34,7.67597345e-04
3.35,7.65564488e-04
3.36,7.63538277e-04
3.37,7.61518691e-04
3.38,7.59505709e-04
3.39,7.57499313e-04
3.40,7.55499482e-04
3.41,7.53506197e-04
3.42,7.51519436e-04
3.43,7.49539181e-04
3.44,7.47565412e-04
3.45,7.45598108e-04
3.46,7.43637251e-04
3.47,7.41682820e-04
3.48,7.39734795e-04
3.49,7.37793157e-04
3.50,7.35857887e-04
3.51,7.33928964e-04
3.52,7.32006369e-04
3.53,7.30090083e-04
3.54,7.28180086e-04
3.55,7.26276358e-04
3.56,7.24378881e-04
3.57,7.22487634e-04
3.58,7.20602599e-04
3.59,7.18723756e-04
3.60,7.16851085e-04
3.61,7.14984568e-04
3.62,7.13124186e-04
3.63,7.11269918e-04
3.64,7.09421747e-04
3.65,7.07579652e-04
3.66,7.05743615e-04
3.67,7.03913617e-04
3.68,7.02089639e-04
3.69,7.00271661e-04
3.70,6.98459666e-04
3.71,6.96653634e-04
3.72,6.94853546e-04
3.73,6.93059383e-04
3.74,6.91271127e-04
3.75,6.89488759e-04
3.76,6.87712260e-04
3.77,6.85941612e-04
3.78,6.84176796e-04
3.79,6.82417794e-04
3.80,6.80664587e-04
3.81,6.78917156e-04
3.82,6.77175483e-04
3.83,6.75439550e-04
3.84,6.73709339e-04
3.85,6.71984830e-04
3.86,6.70266007e-04
3.87,6.68552850e-04
3.88,6.66845341e-04
3.89,6.65143463e-04
3.90,6.63447197e-04
3.91,6.61756525e-04
3.92,6.60071430e-04
3.93,6.58391892e-04
3.94,6.56717895e-04
3.95,6.55049420e-04
3.96,6.53386450e-04
3.97,6.51728967e-04
3.98,6.50076952e-04
3.99,6.48430389e-04
4.00,6.46789259e-04
4.01,6.45153546e-04
4.02,6.43523231e-04
4.03,6.41898297e-04
4.04,6.40278726e-04
4.05,6.38664501e-04
4.06,6.37055605e-04
4.07,6.35452020e-04
4.08,6.33853729e-04
4.09,6.32260715e-04
4.10,6.30672960e-04
4.11,6.29090447e-04
4.12,6.27513160e-04
4.13,6.25941080e-04
4.14,6.24374191e-04
4.15,6.22812477e-04
4.16,6.21255919e-04
4.17,6.19704502e-04
4.18,6.18158207e-04
4.19,6.16617020e-04
4.20,6.15080921e-04
4.21,6.13549896e-04
4.22,6.12023927e-04
4.23,6.10502998e-04
4.24,6.08987091e-04
4.25,6.07476191e-04
4.26,6.05970281e-04
4.27,6.04469345e-04
4.28,6.02973365e-04
4.29,6.01482326e-04
4.30,5.99996212e-04
4.31,5.98515006e-04
4.32,5.97038691e-04
4.33,5.95567252e-04
4.34,5.94100673e-04
4.35,5.92638938e-04
4.36,5.91182029e-04
4.37,5.89729932e-04
4.38,5.88282631e-04
4.39,5.86840109e-04
4.40,5.85402351e-04
4.41,5.83969340e-04
4.42,5.82541062e-04
4.43,5.81117500e-04
4.44,5.79698638e-04
4.45,5.78284462e-04
4.46,5.76874955e-04
4.47,5.75470102e-04
4.48,5.74069888e-04
4.49,5.72674296e-04
4.50,5.71283312e-04
4.51,5.69896920e-04
4.52,5.68515105e-04
4.53,5.67137852e-04
4.54,5.65765145e-04
4.55,5.64396969e-04
4.56,5.63033310e-04
4.57,5.61674151e-04
4.58,5.60319478e-04
4.59,5.58969277e-04
4.60,5.57623531e-04
4.61,5.56282226e-04
4.62,5.54945348e-04
4.63,5.53612881e-04
4.64,5.52284811e-04
4.65,5.50961123e-04
4.66,5.49641803e-04
4.67,5.48326835e-04
4.68,5.47016205e-04
4.69,5.45709899e-04
4.70,5.44407902e-04
4.71,5.43110200e-04
4.72,5.41816778e-04
4.73,5.40527622e-04
4.74,5.39242717e-04
4.75,5.37962050e-04
4.76,5.36685607e-04
4.77,5.35413372e-04
4.78,5.34145333e-04
4.79,5.32881474e-04
4.80,5.31621782e-04
4.81,5.30366243e-04
4.82,5.29114843e-04
4.83,5.27867568e-04
4.84,5.26624405e-04
4.85,5.25385338e-04
4.86,5.24150356e-04
4.87,5.22919444e-04
4.88,5.21692588e-04
4.89,5.20469775e-04
4.90,5.19250991e-04
4.91,5.18036222e-04
4.92,5.16825456e-04
4.93,5.15618679e-04
4.94,5.14415878e-04
4.95,5.13217038e-04
4.96,5.12022147e-04
4.97,5.10831192e-04
4.98,5.09644160e-04
4.99,5.08461036e-04
5.00,5.07281809e-04
5.01,5.06106465e-04
5.02,5.04934992e-04
5.03,5.03767375e-04
5.04,5.02603603e-04
5.05,5.01443662e-04
5.06,5.00287539e-04
5.07,4.99135223e-04
5.08,4.97986699e-04
5.09,4.96841956e-04
5.10,4.95700981e-04
5.11,4.94563761e-04
5.12,4.93430284e-04
5.13,4.92300536e-04
5.14,4.91174507e-04
5.15,4.90052182e-04
5.16,4.88933551e-04
5.17,4.87818600e-04
5.18,4.86707318e-04
5.19,4.85599692e-04
5.20,4.84495709e-04
5.21,4.83395359e-04
5.22,4.82298628e-04
5.23,4.81205505e-04
5.24,4.80115978e-04
5.25,4.79030035e-04
5.26,4.77947663e-04
5.27,4.76868851e-04
5.28,4.75793588e-04
5.29,4.74721861e-04
5.30,4.73653659e-04
5.31,4.72588970e-04
5.32,4.71527782e-04
5.33,4.70470084e-04
5.34,4.69415865e-04
5.35,4.68365112e-04
5.36,4.67317815e-04
5.37,4.66273962e-04
5.38,4.65233542e-04
5.39,4.64196543e-04
5.40,4.63162954e-04
5.41,4.62132764e-04
5.42,4.61105962e-04
5.43,4.60082536e-04
5.44,4.59062476e-04
5.45,4.58045771e-04
5.46,4.57032409e-04
5.47,4.56022380e-04
5.48,4.55015672e-04
5.49,4.54012276e-04
5.50,4.53012180e-04
5.51,4.52015373e-04
5.52,4.51021845e-04
5.53,4.50031585e-04
5.54,4.49044582e-04
5.55,4.48060826e-04
5.56,4.47080307e-04
5.57,4.46103014e-04
5.58,4.45128936e-04
5.59,4.44158063e-04
5.60,4.43190385e-04
5.61,4.42225892e-04
5.62,4.41264573e-04
5.63,4.40306418e-04
5.64,4.39351417e-04
5.65,4.38399560e-04
5.66,4.37450837e-04
5.67,4.36505238e-04
5.68,4.35562753e-04
5.69,4.34623372e-04
5.70,4.33687086e-04
5.71,4.32753883e-04
5.72,4.31823756e-04
5.73,4.30896693e-04
5.74,4.29972686e-04
5.75,4.29051724e-04
5.76,4.28133799e-04
5.77,4.27218900e-04
5.78,4.26307018e-04
5.79,4.25398145e-04
5.80,4.24492269e-04
5.81,4.23589383e-04
5.82,4.22689477e-04
5.83,4.21792541e-04
5.84,4.20898567e-04
5.85,4.20007545e-04
5.86,4.19119467e-04
5.87,4.18234322e-04
5.88,4.17352104e-04
5.89,4.16472801e-04
5.90,4.15596406e-04
5.91,4.14722910e-04
5.92,4.13852304e-04
5.93,4.12984579e-04
5.94,4.12119727e-04
5.95,4.11257739e-04
5.96,4.10398606e-04
5.97,4.09542320e-04
5.98,4.08688873e-04
5.99,4.07838256e-04
6.00,4.06990461e-04
6.01,4.06145479e-04
6.02,4.05303303e-04
6.03,4.04463923e-04
6.04,4.03627333e-04
6.05,4.02793524e-04
6.06,4.01962487e-04
6.07,4.01134215e-04
6.08,4.00308701e-04
6.09,3.99485935e-04
6.10,3.98665911e-04
6.11,3.97848621e-04
6.12,3.97034057e-04
6.13,3.96222211e-04
6.14,3.95413075e-04
6.15,3.94606643e-04
6.16,3.93802907e-04
6.17,3.93001859e-04
6.18,3.92203493e-04
6.19,3.91407800e-04
6.20,3.90614774e-04
6.21,3.89824408e-04
6.22,3.89036694e-04
6.23,3.88251625e-04
6.24,3.87469195e-04
6.25,3.86689396e-04
6.26,3.85912222e-04
6.27,3.85137666e-04
6.28,3.84365721e-04
6.29,3.83596381e-04
6.30,3.82829639e-04
6.31,3.82065488e-04
6.32,3.81303923e-04
6.33,3.80544936e-04
6.34,3.79788522e-04
6.35,3.79034674e-04
6.36,3.78283386e-04
6.37,3.77534652e-04
6.38,3.76788466e-04
6.39,3.76044822e-04
6.40,3.75303714e-04
6.41,3.74565136e-04
6.42,3.73829083e-04
6.43,3.73095549e-04
6.44,3.72364529e-04
6.45,3.71636016e-04
6.46,3.70910006e-04
6.47,3.70186494e-04
6.48,3.69465473e-04
6.49,3.68746939e-04
6.50,3.68030887e-04
6.51,3.67317311e-04
6.52,3.66606208e-04
6.53,3.65897571e-04
6.54,3.65191397e-04
6.55,3.64487681e-04
6.56,3.63786417e-04
6.57,3.63087603e-04
6.58,3.62391232e-04
6.59,3.61697302e-04
6.60,3.61005808e-04
6.61,3.60316745e-04
6.62,3.59630110e-04
6.63,3.58945899e-04
6.64,3.58264109e-04
6.65,3.57584735e-04
6.66,3.56907774e-04
6.67,3.56233222e-04
6.68,3.55561077e-04
6.69,3.54891335e-04
6.70,3.54223992e-04
6.71,3.53559047e-04
6.72,3.52896495e-04
6.73,3.52236335e-04
6.74,3.51578563e-04
6.75,3.50923178e-04
6.76,3.50270176e-04
6.77,3.49619555e-04
6.78,3.48971314e-04
6.79,3.48325450e-04
6.80,3.47681962e-04
6.81,3.47040847e-04
6.82,3.46402104e-04
6.83,3.45765732e-04
6.84,3.45131729e-04
6.85,3.44500095e-04
6.86,3.43870827e-04
6.87,3.43243926e-04
6.88,3.42619391e-04
6.89,3.41997220e-04
6.90,3.41377414e-04
6.91,3.40759973e-04
6.92,3.40144896e-04
6.93,3.39532183e-04
6.94,3.38921836e-04
6.95,3.38313853e-04
6.96,3.37708236e-04
6.97,3.37104986e-04
6.98,3.36504103e-04
6.99,3.35905589e-04
7.00,3.35309445e-04
7.01,3.34715673e-04
7.02,3.34124274e-04
7.03,3.33535250e-04
7.04,3.32948603e-04
7.05,3.32364336e-04
7.06,3.31782452e-04
7.07,3.31202952e-04
7.08,3.30625840e-04
7.09,3.30051120e-04
7.10,3.29478793e-04
7.11,3.28908864e-04
7.12,3.28341337e-04
7.13,3.27776216e-04
7.14,3.27213504e-04
7.15,3.26653207e-04
7.16,3.26095329e-04
7.17,3.25539874e-04
7.18,3.24986848e-04
7.19,3.24436256e-04
7.20,3.23888104e-04
7.21,3.23342397e-04
7.22,3.22799142e-04
7.23,3.22258344e-04
7.24,3.21720009e-04
7.25,3.21184145e-04
7.26,3.20650758e-04
7.27,3.20119854e-04
7.28,3.19591442e-04
7.29,3.19065529e-04
7.30,3.18542121e-04
7.31,3.18021227e-04
7.32,3.17502854e-04
7.33,3.16987011e-04
7.34,3.16473705e-04
7.35,3.15962945e-04
7.36,3.15454738e-04
7.37,3.14949094e-04
7.38,3.14446021e-04
7.39,3.13945527e-04
7.40,3.13447621e-04
7.41,3.12952311e-04
7.42,3.12459606e-04
7.43,3.11969514e-04
7.44,3.11482044e-04
7.45,3.10997204e-04
7.46,3.10515001e-04
7.47,3.10035444e-04
7.48,3.09558540e-04
7.49,3.09084296e-04
7.50,3.08612720e-04
7.51,3.08143818e-04
7.52,3.07677596e-04
7.53,3.07214059e-04
7.54,3.06753213e-04
7.55,3.06295061e-04
7.56,3.05839608e-04
7.57,3.05386855e-04
7.58,3.04936806e-04
7.59,3.04489459e-04
7.60,3.04044816e-04
7.61,3.03602875e-04
7.62,3.03163633e-04
7.63,3.02727085e-04
7.64,3.02293226e-04
7.65,3.01862049e-04
7.66,3.01433544e-04
7.67,3.01007701e-04
7.68,3.00584505e-04
7.69,3.00163943e-04
7.70,2.99745996e-04
7.71,2.99330643e-04
7.72,2.98917863e-04
7.73,2.98507630e-04
7.74,2.98099914e-04
7.75,2.97694685e-04
7.76,2.97291907e-04
7.77,2.96891541e-04
7.78,2.96493547e-04
7.79,2.96097878e-04
7.80,2.95704483e-04
7.81,2.95313310e-04
7.82,2.94924299e-04
7.83,2.94537389e-04
7.84,2.94152512e-04
7.85,2.93769597e-04
7.86,2.93388566e-04
7.87,2.93009338e-04
7.88,2.92631826e-04
7.89,2.92255939e-04
7.90,2.91881579e-04
7.91,2.91508645e-04
7.92,2.91137029e-04
7.93,2.90766618e-04
7.94,2.90397294e-04
7.95,2.90028933e-04
7.96,2.89661409e-04
7.97,2.89294585e-04
7.98,2.88928325e-04
7.99,2.88562485e-04
8.00,2.88196916e-04
8.01,2.87831466e-04
8.02,2.87465977e-04
8.03,2.87100288e-04
8.04,2.86734235e-04
8.05,2.86367648e-04
8.06,2.86000357e-04
8.07,2.85632185e-04
8.08,2.85262957e-04
8.09,2.84892493e-04
8.10,2.84520610e-04
8.11,2.84147125e-04
8.12,2.83771859e-04
8.13,2.83394632e-04
8.14,2.83015306e-04
8.15,2.82634040e-04
8.16,2.82251039e-04
8.17,2.81866508e-04
8.18,2.81480654e-04
8.19,2.81093685e-04
8.20,2.80705805e-04
8.21,2.80317218e-04
8.22,2.79928122e-04
8.23,2.79538716e-04
8.24,2.79149194e-04
8.25,2.78759745e-04
8.26,2.78370556e-04
8.27,2.77981811e-04
8.28,2.77593689e-04
8.29,2.77206363e-04
8.30,2.76820002e-04
8.31,2.76434773e-04
8.32,2.76050835e-04
8.33,2.75668342e-04
8.34,2.75287446e-04
8.35,2.74908289e-04
8.36,2.74531014e-04
8.37,2.74155753e-04
8.38,2.73782636e-04
8.39,2.73411789e-04
8.40,2.73043329e-04
8.41,2.72677371e-04
8.42,2.72314025e-04
8.43,2.71953395e-04
8.44,2.71595581e-04
8.45,2.71240679e-04
8.46,2.70888779e-04
8.47,2.70539969e-04
8.48,2.70194329e-04
8.49,2.69851940e-04
8.50,2.69512875e-04
8.51,2.69177205e-04
8.52,2.68844997e-04
8.53,2.68516316e-04
8.54,2.68191220e-04
8.55,2.67869769e-04
8.56,2.67552016e-04
8.57,2.67238012e-04
8.58,2.66927806e-04
8.59,2.66621444e-04
8.60,2.66318969e-04
8.61,2.66020423e-04
8.62,2.65725843e-04
8.63,2.65435266e-04
8.64,2.65148727e-04
8.65,2.64866258e-04
8.66,2.64587887e-04
8.67,2.64313644e-04
8.68,2.64043555e-04
8.69,2.63777643e-04
8.70,2.63515932e-04
8.71,2.63258440e-04
8.72,2.63005187e-04
8.73,2.62756189e-04
8.74,2.62511461e-04
8.75,2.62271014e-04
8.76,2.62034861e-04
8.77,2.61803008e-04
8.78,2.61575463e-04
8.79,2.61352229e-04
8.80,2.61133308e-04
8.81,2.60918699e-04
8.82,2.60708399e-04
8.83,2.60502402e-04
8.84,2.60300698e-04
8.85,2.60103277e-04
8.86,2.59910122e-04
8.87,2.59721216e-04
8.88,2.59536536e-04
8.89,2.59356057e-04
8.90,2.59179749e-04
8.91,2.59007580e-04
8.92,2.58839509e-04
8.93,2.58675496e-04
8.94,2.58515491e-04
8.95,2.58359444e-04
8.96,2.58207294e-04
8.97,2.58058979e-04
8.98,2.57914429e-04
8.99,2.57773568e-04
9.00,2.57636313e-04
9.01,2.57502574e-04
9.02,2.57372256e-04
9.03,2.57245254e-04
9.04,2.57121455e-04
9.05,2.57000740e-04
9.06,2.56882981e-04
9.07,2.56768040e-04
9.08,2.56655771e-04
9.09,2.56546019e-04
9.10,2.56438617e-04
9.11,2.56333391e-04
9.12,2.56230156e-04
9.13,2.56128715e-04
9.14,2.56028862e-04
9.15,2.55930378e-04
9.16,2.55833037e-04
9.17,2.55736596e-04
9.18,2.55640805e-04
9.19,2.55545399e-04
9.20,2.55450105e-04
9.21,2.55354634e-04
9.22,2.55258688e-04
9.23,2.55161956e-04
9.24,2.55064115e-04
9.25,2.54964830e-04
9.26,2.54863754e-04
9.27,2.54760530e-04
9.28,2.54654787e-04
9.29,2.54546145e-04
9.30,2.54434212e-04
9.31,2.54318586e-04
9.32,2.54198852e-04
9.33,2.54074589e-04
9.34,2.53945364e-04
9.35,2.53810736e-04
9.36,2.53670254e-04
9.37,2.53523462e-04
9.38,2.53369894e-04
9.39,2.53209078e-04
9.40,2.53040536e-04
9.41,2.52863784e-04
9.42,2.52678335e-04
9.43,2.52483693e-04
9.44,2.52279362e-04
9.45,2.52064859e-04
9.46,2.51839705e-04
9.47,2.51603413e-04
9.48,2.51356227e-04
9.49,2.51098681e-04
9.50,2.50831263e-04
9.51,2.50554482e-04
9.52,2.50268851e-04
9.53,2.49974878e-04
9.54,2.49673064e-04
9.55,2.49363906e-04
9.56,2.49047896e-04
9.57,2.48725517e-04
9.58,2.48397248e-04
9.59,2.48063558e-04
9.60,2.47724910e-04
9.61,2.47381755e-04
9.62,2.47034538e-04
9.63,2.46683694e-04
9.64,2.46329645e-04
9.65,2.45972806e-04
9.66,2.45613580e-04
9.67,2.45252358e-04
9.68,2.44889520e-04
9.69,2.44525436e-04
9.70,2.44160463e-04
9.71,2.43794946e-04
9.72,2.43429219e-04
9.73,2.43063604e-04
9.74,2.42698411e-04
9.75,2.42333939e-04
9.76,2.41970472e-04
9.77,2.41608287e-04
9.78,2.41247647e-04
9.79,2.40888804e-04
9.80,2.40531998e-04
9.81,2.40177459e-04
9.82,2.39825408e-04
9.83,2.39476051e-04
9.84,2.39129589e-04
9.85,2.38786209e-04
9.86,2.38446091e-04
9.87,2.38109404e-04
9.88,2.37776309e-04
9.89,2.37446958e-04
9.90,2.37121494e-04
9.91,2.36800052e-04
9.92,2.36482761e-04
9.93,2.36169740e-04
9.94,2.35861102e-04
9.95,2.35556955e-04
9.96,2.35257398e-04
9.97,2.34962524e-04
